 Index   radius(μm)
   1        20.126000
   2        28.463000
   3        34.862000
   4        40.257000
   5        45.011000
   6        49.310000
   7        53.264000
   8        56.944000
   9        60.401000
  10        63.672000
  11        66.783000
  12        69.756000
  13        72.608000
  14        75.353000
  15        78.001000
  16        80.564000
  17        83.047000
  18        85.459000
  19        87.805000
  20        90.091000
  21        92.321000
  22        94.498000
  23        96.627000
  24        98.710000
  25       100.750000
  26       102.751000
  27       104.713000
  28       106.640000
  29       108.533000
  30       110.394000
  31       112.225000
  32       114.026000
  33       115.800000
  34       117.547000
  35       119.270000
  36       120.968000
  37       122.642000
  38       124.295000
  39       125.926000
  40       127.537000
  41       129.128000
  42       130.699000
  43       132.253000
  44       133.789000
  45       135.307000
  46       136.809000
  47       138.295000
  48       139.766000
  49       141.221000
  50       142.662000
  51       144.089000
  52       145.502000
  53       146.902000
  54       148.289000
  55       149.663000
  56       151.025000
  57       152.375000
  58       153.714000
  59       155.041000
  60       156.357000
  61       157.663000
  62       158.958000
  63       160.243000
  64       161.518000
  65       162.783000
  66       164.038000
  67       165.285000
  68       166.522000
  69       167.751000
  70       168.970000
  71       170.181000
  72       171.384000
  73       172.579000
  74       173.766000
  75       174.945000
  76       176.116000
  77       177.280000
  78       178.436000
  79       179.585000
  80       180.728000
  81       181.863000
  82       182.991000
  83       184.113000
  84       185.228000
  85       186.336000
  86       187.439000
  87       188.535000
  88       189.625000
  89       190.709000
  90       191.787000
  91       192.859000
  92       193.925000
  93       194.986000
  94       196.042000
  95       197.092000
  96       198.136000
  97       199.175000
  98       200.209000
  99       201.238000
 100       202.262000
 101       203.281000
 102       204.295000
 103       205.305000
 104       206.309000
 105       207.309000
 106       208.304000
 107       209.295000
 108       210.281000
 109       211.263000
 110       212.241000
 111       213.214000
 112       214.183000
 113       215.148000
 114       216.109000
 115       217.065000
 116       218.018000
 117       218.967000
 118       219.911000
 119       220.852000
 120       221.789000
 121       222.723000
 122       223.652000
 123       224.578000
 124       225.501000
 125       226.419000
 126       227.335000
 127       228.246000
 128       229.155000
 129       230.060000
 130       230.961000
 131       231.859000
 132       232.754000
 133       233.646000
 134       234.534000
 135       235.419000
 136       236.302000
 137       237.181000
 138       238.057000
 139       238.929000
 140       239.799000
 141       240.666000
 142       241.530000
 143       242.391000
 144       243.249000
 145       244.105000
 146       244.957000
 147       245.807000
 148       246.654000
 149       247.498000
 150       248.340000
 151       249.179000
 152       250.015000
 153       250.848000
 154       251.679000
 155       252.508000
 156       253.334000
 157       254.157000
 158       254.978000
 159       255.796000
 160       256.612000
 161       257.426000
 162       258.237000
 163       259.045000
 164       259.852000
 165       260.656000
 166       261.457000
 167       262.257000
 168       263.054000
 169       263.849000
 170       264.641000
 171       265.432000
 172       266.220000
 173       267.006000
 174       267.790000
 175       268.572000
 176       269.351000
 177       270.129000
 178       270.904000
 179       271.678000
 180       272.449000
 181       273.219000
 182       273.986000
 183       274.751000
 184       275.515000
 185       276.276000
 186       277.035000
 187       277.793000
 188       278.549000
 189       279.302000
 190       280.054000
 191       280.804000
 192       281.552000
 193       282.298000
 194       283.043000
 195       283.786000
 196       284.526000
 197       285.266000
 198       286.003000
 199       286.738000
 200       287.472000
 201       288.204000
 202       288.935000
 203       289.663000
 204       290.390000
 205       291.116000
 206       291.839000
 207       292.561000
 208       293.282000
 209       294.000000
 210       294.717000
 211       295.433000
 212       296.147000
 213       296.859000
 214       297.570000
 215       298.279000
 216       298.987000
 217       299.693000
 218       300.398000
 219       301.101000
 220       301.802000
 221       302.503000
 222       303.201000
 223       303.898000
 224       304.594000
 225       305.288000
 226       305.981000
 227       306.672000
 228       307.362000
 229       308.051000
 230       308.738000
 231       309.424000
 232       310.108000
 233       310.791000
 234       311.473000
 235       312.153000
 236       312.832000
 237       313.510000
 238       314.186000
 239       314.861000
 240       315.534000
 241       316.207000
 242       316.878000
 243       317.547000
 244       318.216000
 245       318.883000
 246       319.549000
 247       320.214000
 248       320.877000
 249       321.539000
 250       322.200000
 251       322.860000
 252       323.518000
 253       324.176000
 254       324.832000
 255       325.486000
 256       326.140000
 257       326.793000
 258       327.444000
 259       328.094000
 260       328.743000
 261       329.391000
 262       330.038000
 263       330.683000
 264       331.328000
 265       331.971000
 266       332.613000
 267       333.254000
 268       333.894000
 269       334.533000
 270       335.171000
 271       335.807000
 272       336.443000
 273       337.077000
 274       337.711000
 275       338.343000
 276       338.974000
 277       339.605000
 278       340.234000
 279       340.862000
 280       341.489000
 281       342.115000
 282       342.740000
 283       343.987000
 284       344.610000
 285       345.231000
 286       345.851000
 287       346.470000
 288       347.088000
 289       347.705000
 290       348.321000
 291       348.936000
 292       349.550000
 293       350.163000
 294       350.776000
 295       351.387000
 296       351.997000
 297       352.607000
 298       353.215000
 299       353.823000
 300       354.429000
 301       355.035000
 302       355.640000
 303       356.244000
 304       356.847000
 305       357.449000
 306       358.050000
 307       358.650000
 308       359.250000
 309       359.848000
 310       360.446000
 311       361.043000
 312       361.638000
 313       362.233000
 314       362.828000
 315       363.421000
 316       364.013000
 317       364.605000
 318       365.196000
 319       365.786000
 320       366.375000
 321       366.963000
 322       367.550000
 323       368.137000
 324       368.723000
 325       369.307000
 326       369.892000
 327       370.475000
 328       371.057000
 329       371.639000
 330       372.220000
 331       372.800000
 332       373.379000
 333       373.958000
 334       374.536000
 335       375.113000
 336       375.689000
 337       376.264000
 338       376.839000
 339       377.413000
 340       377.986000
 341       378.558000
 342       379.130000
 343       379.701000
 344       380.271000
 345       380.840000
 346       381.409000
 347       381.976000
 348       382.544000
 349       383.110000
 350       383.676000
 351       384.241000
 352       384.805000
 353       385.368000
 354       385.931000
 355       386.493000
 356       387.055000
 357       387.615000
 358       388.175000
 359       388.734000
 360       389.293000
 361       389.851000
 362       390.408000
 363       390.964000
 364       391.520000
 365       392.075000
 366       392.630000
 367       393.183000
 368       393.737000
 369       394.289000
 370       394.841000
 371       395.392000
 372       395.942000
 373       396.492000
 374       397.041000
 375       397.589000
 376       398.137000
 377       398.684000
 378       399.231000
 379       399.777000
 380       400.322000
 381       400.866000
 382       401.410000
 383       401.954000
 384       402.496000
 385       403.038000
 386       403.580000
 387       404.120000
 388       404.660000
 389       405.200000
 390       405.739000
 391       406.277000
 392       406.815000
 393       407.352000
 394       407.888000
 395       408.424000
 396       408.960000
 397       409.494000
 398       410.028000
 399       410.562000
 400       411.095000
 401       411.627000
 402       412.159000
 403       412.690000
 404       413.220000
 405       413.750000
 406       414.280000
 407       414.808000
 408       415.337000
 409       415.864000
 410       416.391000
 411       416.918000
 412       417.444000
 413       417.969000
 414       418.494000
 415       419.018000
 416       419.542000
 417       420.065000
 418       420.588000
 419       421.110000
 420       421.631000
 421       422.152000
 422       422.673000
 423       423.193000
 424       423.712000
 425       424.231000
 426       424.749000
 427       425.267000
 428       425.784000
 429       426.300000
 430       426.817000
 431       427.332000
 432       427.847000
 433       428.362000
 434       428.876000
 435       429.389000
 436       429.902000
 437       430.415000
 438       430.927000
 439       431.438000
 440       431.949000
 441       432.459000
 442       432.969000
 443       433.479000
 444       433.988000
 445       434.496000
 446       435.004000
 447       435.511000
 448       436.018000
 449       436.525000
 450       437.031000
 451       437.536000
 452       438.041000
 453       438.545000
 454       439.049000
 455       439.553000
 456       440.056000
 457       440.558000
 458       441.060000
 459       441.562000
 460       442.063000
 461       442.564000
 462       443.064000
 463       443.563000
 464       444.063000
 465       444.561000
 466       445.060000
 467       445.557000
 468       446.055000
 469       446.552000
 470       447.048000
 471       447.544000
 472       448.039000
 473       448.534000
 474       449.029000
 475       449.523000
 476       450.017000
 477       450.510000
 478       451.003000
 479       451.495000
 480       451.987000
 481       452.478000
 482       452.969000
 483       453.460000
 484       453.950000
 485       454.440000
 486       454.929000
 487       455.418000
 488       455.906000
 489       456.394000
 490       456.882000
 491       457.369000
 492       457.855000
 493       458.342000
 494       458.827000
 495       459.313000
 496       459.798000
 497       460.282000
 498       460.766000
 499       461.250000
 500       461.733000
 501       462.216000
 502       462.699000
 503       463.181000
 504       463.662000
 505       464.143000
 506       464.624000
 507       465.105000
 508       465.585000
 509       466.064000
 510       466.543000
 511       467.022000
 512       467.500000
 513       467.978000
 514       468.456000
 515       468.933000
 516       469.410000
 517       469.886000
 518       470.362000
 519       470.838000
 520       471.313000
 521       471.788000
 522       472.262000
 523       472.736000
 524       473.210000
 525       473.683000
 526       474.156000
 527       474.628000
 528       475.100000
 529       475.572000
 530       476.043000
 531       476.514000
 532       476.985000
 533       477.455000
 534       477.925000
 535       478.394000
 536       478.863000
 537       479.332000
 538       479.800000
 539       480.268000
 540       480.736000
 541       481.203000
 542       481.670000
 543       482.136000
 544       482.602000
 545       483.068000
 546       483.533000
 547       483.998000
 548       484.463000
 549       484.927000
 550       485.391000
 551       485.855000
 552       486.318000
 553       486.781000
 554       487.243000
 555       487.705000
 556       488.167000
 557       488.629000
 558       489.090000
 559       489.550000
 560       490.011000
 561       490.471000
 562       490.930000
 563       491.390000
 564       491.849000
 565       492.307000
 566       492.766000
 567       493.224000
 568       493.681000
 569       494.139000
 570       494.596000
 571       495.052000
 572       495.508000
 573       495.964000
 574       496.420000
 575       496.875000
 576       497.330000
 577       497.785000
 578       498.239000
 579       498.693000
 580       499.146000
 581       499.600000
 582       500.053000
 583       500.505000
 584       500.957000
 585       501.409000
 586       501.861000
 587       502.312000
 588       502.763000
 589       503.214000
 590       503.664000
 591       504.114000
 592       504.564000
 593       505.013000
 594       505.462000
 595       505.911000
 596       506.360000
 597       506.808000
 598       507.255000
 599       507.703000
 600       508.150000
 601       508.597000
 602       509.043000
 603       509.490000
 604       509.936000
 605       510.381000
 606       510.826000
 607       511.271000
 608       511.716000
 609       512.161000
 610       512.605000
 611       513.048000
 612       513.492000
 613       513.935000
 614       514.378000
 615       514.820000
 616       515.263000
 617       515.705000
 618       516.146000
 619       516.588000
 620       517.029000
 621       517.469000
 622       517.910000
 623       518.350000
 624       518.790000
 625       519.230000
 626       519.669000
 627       520.108000
 628       520.547000
 629       520.985000
 630       521.423000
 631       521.861000
 632       522.299000
 633       522.736000
 634       523.173000
 635       523.609000
 636       524.046000
 637       524.482000
 638       524.918000
 639       525.353000
 640       525.789000
 641       526.224000
 642       526.658000
 643       527.093000
 644       527.527000
 645       527.961000
 646       528.394000
 647       528.828000
 648       529.261000
 649       529.693000
 650       530.126000
 651       530.558000
 652       530.990000
 653       531.422000
 654       531.853000
 655       532.284000
 656       532.715000
 657       533.146000
 658       533.576000
 659       534.006000
 660       534.436000
 661       534.865000
 662       535.294000
 663       535.723000
 664       536.152000
 665       536.580000
 666       537.009000
 667       537.436000
 668       537.864000
 669       538.291000
 670       538.719000
 671       539.145000
 672       539.572000
 673       539.998000
 674       540.424000
 675       540.850000
 676       541.276000
 677       541.701000
 678       542.126000
 679       542.551000
 680       542.975000
 681       543.399000
 682       543.823000
 683       544.247000
 684       544.671000
 685       545.094000
 686       545.517000
 687       545.940000
 688       546.362000
 689       546.784000
 690       547.206000
 691       547.628000
 692       548.049000
 693       548.471000
 694       548.892000
 695       549.312000
 696       549.733000
 697       550.153000
 698       550.573000
 699       550.993000
 700       551.412000
 701       551.832000
 702       552.251000
 703       552.669000
 704       553.088000
 705       553.506000
 706       553.924000
 707       554.342000
 708       554.759000
 709       555.177000
 710       555.594000
 711       556.011000
 712       556.427000
 713       556.844000
 714       557.260000
 715       557.676000
 716       558.091000
 717       558.507000
 718       558.922000
 719       559.337000
 720       559.751000
 721       560.166000
 722       560.580000
 723       560.994000
 724       561.408000
 725       561.822000
 726       562.235000
 727       562.648000
 728       563.061000
 729       563.473000
 730       563.886000
 731       564.298000
 732       564.710000
 733       565.122000
 734       565.533000
 735       565.944000
 736       566.355000
 737       566.766000
 738       567.177000
 739       567.587000
 740       567.997000
 741       568.407000
 742       568.817000
 743       569.226000
 744       569.635000
 745       570.044000
 746       570.453000
 747       570.862000
 748       571.270000
 749       571.678000
 750       572.086000
 751       572.494000
 752       572.901000
 753       573.309000
 754       573.716000
 755       574.122000
 756       574.529000
 757       574.935000
 758       575.342000
 759       575.748000
 760       576.153000
 761       576.559000
 762       576.964000
 763       577.369000
 764       577.774000
 765       578.179000
 766       578.583000
 767       578.987000
 768       579.391000
 769       579.795000
 770       580.199000
 771       580.602000
 772       581.006000
 773       581.409000
 774       581.811000
 775       582.214000
 776       582.616000
 777       583.018000
 778       583.420000
 779       583.822000
 780       584.224000
 781       584.625000
 782       585.026000
 783       585.427000
 784       585.828000
 785       586.228000
 786       586.629000
 787       587.029000
 788       587.429000
 789       587.828000
 790       588.228000
 791       588.627000
 792       589.026000
 793       589.425000
 794       589.824000
 795       590.222000
 796       590.620000
 797       591.019000
 798       591.416000
 799       591.814000
 800       592.212000
 801       592.609000
 802       593.006000
 803       593.403000
 804       593.800000
 805       594.196000
 806       594.593000
 807       594.989000
 808       595.385000
 809       595.780000
 810       596.176000
 811       596.571000
 812       596.966000
 813       597.361000
 814       597.756000
 815       598.151000
 816       598.545000
 817       598.939000
 818       599.333000
 819       599.727000
 820       600.121000
 821       600.514000
 822       600.907000
 823       601.300000
 824       601.693000
 825       602.086000
 826       602.479000
 827       602.871000
 828       603.263000
 829       603.655000
 830       604.047000
 831       604.438000
 832       604.830000
 833       605.221000
 834       605.612000
 835       606.003000
 836       606.393000
 837       606.784000
 838       607.174000
 839       607.564000
 840       607.954000
 841       608.344000
 842       608.733000
 843       609.123000
 844       609.512000
 845       609.901000
 846       610.289000
 847       610.678000
 848       611.067000
 849       611.843000
 850       612.231000
 851       612.619000
 852       613.006000
 853       613.394000
 854       613.781000
 855       614.168000
 856       614.555000
 857       614.941000
 858       615.328000
 859       615.714000
 860       616.100000
 861       616.486000
 862       616.872000
 863       617.258000
 864       617.643000
 865       618.028000
 866       618.413000
 867       618.798000
 868       619.183000
 869       619.568000
 870       619.952000
 871       620.336000
 872       620.720000
 873       621.104000
 874       621.488000
 875       621.871000
 876       622.255000
 877       622.638000
 878       623.021000
 879       623.404000
 880       623.787000
 881       624.169000
 882       624.552000
 883       624.934000
 884       625.316000
 885       625.698000
 886       626.079000
 887       626.461000
 888       626.842000
 889       627.223000
 890       627.604000
 891       627.985000
 892       628.366000
 893       628.746000
 894       629.127000
 895       629.507000
 896       629.887000
 897       630.267000
 898       630.647000
 899       631.026000
 900       631.405000
 901       631.785000
 902       632.164000
 903       632.543000
 904       632.921000
 905       633.300000
 906       633.678000
 907       634.057000
 908       634.435000
